RamanShift_cm-1,Intensity_raw,Baseline_ALS,Intensity_corrected
1200.09,977.0,998.412616823542,-21.412616823541953
1201.19,994.131,999.022882692533,-4.891882692533045
1202.29,997.289,999.6331464416751,-2.3441464416750932
1203.39,996.179,1000.2434054668227,-4.064405466822677
1204.49,997.184,1000.8536569317594,-3.6696569317593912
1205.58,993.792,1001.4638975978927,-7.6718975978926665
1206.68,997.12,1002.0741238633337,-4.954123863333734
1207.78,1008.05,1002.684331366676,5.365668633323935
1208.87,1000.62,1003.2945152560548,-2.6745152560547467
1209.97,995.119,1003.9046706849713,-8.785670684971251
1211.07,986.976,1004.5147925421496,-17.538792542149622
1212.17,1011.3,1005.1248748465321,6.175125153467889
1213.26,1006.47,1005.7349098807206,0.7350901192794481
1214.36,1002.01,1006.3448899334918,-4.334889933491809
1215.46,1007.04,1006.9548072943584,0.08519270564158887
1216.55,1006.98,1007.5646538236787,-0.58465382367865
1217.65,1011.57,1008.1744213818967,3.3955786181034
1218.74,1006.07,1008.7841017715749,-2.7141017715748603
1219.84,1010.21,1009.3936867986716,0.8163132013283985
1220.93,1006.08,1010.0031680004491,-3.9231680004490954
1222.03,1014.62,1010.612536914986,4.007463085014024
1223.12,1013.38,1011.2217846919665,2.1582153080335047
1224.22,1005.36,1011.8309024850832,-6.470902485083229
1225.31,1010.35,1012.4398814501869,-2.0898814501869083
1226.41,1019.1,1013.0487121025088,6.051287897491193
1227.5,1006.36,1013.6573847503809,-7.297384750380843
1228.6,1024.3,1014.2658897081867,10.03411029181325
1229.69,1014.57,1014.8742165678689,-0.3042165678688207
1230.78,1018.78,1015.482354931404,3.2976450685960117
1231.88,1021.57,1016.0902943706511,5.479705629348928
1232.97,1019.81,1016.6980244607672,3.1119755392327306
1234.06,1022.06,1017.305534782389,4.754465217610914
1235.16,1024.62,1017.9128149192655,6.707185080734348
1236.25,1027.61,1018.5198544598999,9.090145540100025
1237.34,1016.56,1019.1266429995031,-2.5666429995031876
1238.43,1028.73,1019.7331701423772,8.996829857622856
1239.53,1040.57,1020.3394252387261,20.23057476127383
1240.62,1022.78,1020.9453976477507,1.8346023522492487
1241.71,1021.91,1021.5510767488829,0.35892325111706214
1242.8,1026.27,1022.1564519233897,4.1135480766103
1243.89,1033.34,1022.7615125528973,10.578487447102589
1244.99,1027.89,1023.3662480231453,4.523751976854783
1246.08,1025.31,1023.9706477304521,1.3393522695478168
1247.17,1036.12,1024.5747010756606,11.54529892433925
1248.26,1038.82,1025.1783974609534,13.641602539046517
1249.35,1034.85,1025.7817263000584,9.068273699941528
1250.44,1033.37,1026.384677020345,6.9853229796549385
1251.53,1027.49,1026.987239058251,0.5027609417491021
1252.62,1040.13,1027.5894018571994,12.540598142800718
1253.71,1043.48,1028.1911548611167,15.288845138883289
1254.8,1051.0,1028.7924875264703,22.207512473529732
1255.89,1040.48,1029.3933893250166,11.086610674983376
1256.98,1039.7,1029.9938497507203,9.706150249279744
1258.07,1047.72,1030.5938583086322,17.12614169136782
1259.16,1048.14,1031.1934045135097,16.946595486490423
1260.24,1043.23,1031.7924778972367,11.437522102763296
1261.33,1045.19,1032.391068008644,12.798931991356085
1262.42,1048.66,1032.989164408,15.670835592000003
1263.51,1043.68,1033.5867566683726,10.093243331627491
1264.6,1041.96,1034.1838343785,7.776165621500013
1265.69,1047.64,1034.7803871372143,12.859612862785752
1266.77,1053.02,1035.3764045511236,17.64359544887634
1267.86,1051.22,1035.9718762396953,15.24812376030468
1268.95,1055.24,1036.5667918400402,18.673208159959813
1270.04,1055.19,1037.1611410045175,18.02885899548255
1271.12,1059.08,1037.7549134041599,21.325086595840048
1272.21,1058.31,1038.3480987280286,19.96190127197133
1273.3,1049.23,1038.940686686511,10.289313313488947
1274.38,1058.79,1039.5326670099566,19.257332990043324
1275.47,1060.75,1040.124029439004,20.62597056099594
1276.56,1062.39,1040.7147637335497,21.675236266450383
1277.64,1067.39,1041.3048596741164,26.085140325883685
1278.73,1053.15,1041.894307062902,11.255692937098047
1279.81,1063.44,1042.48309572819,20.956904271810117
1280.9,1063.4,1043.0712155095193,20.328784490480757
1281.98,1057.74,1043.6586562673867,14.081343732613277
1283.07,1065.76,1044.2454078826172,21.51459211738279
1284.15,1062.45,1044.8314602501175,17.61853974988253
1285.24,1066.44,1045.41680328631,21.02319671369014
1286.32,1077.03,1046.0014269252351,31.028573074764836
1287.41,1076.97,1046.5853211219571,30.384678878042905
1288.49,1063.14,1047.1684758625688,15.971524137431288
1289.57,1066.76,1047.7508811635478,19.009118836452217
1290.66,1076.57,1048.3325270573437,28.237472942656268
1291.74,1068.69,1048.9134035954153,19.77659640458478
1292.83,1068.57,1049.4935008574591,19.076499142540797
1293.91,1072.82,1050.0728089429479,22.747191057052078
1294.99,1085.59,1050.6513179704314,34.938682029568554
1296.07,1079.08,1051.229018081207,27.850981918792968
1297.16,1080.77,1051.805899451511,28.964100548488886
1298.24,1074.65,1052.3819522854317,22.26804771456841
1299.32,1081.8,1052.9571668160206,28.842833183979337
1300.4,1086.31,1053.5315332985986,32.778466701401385
1301.49,1086.21,1054.105042017329,32.10495798267107
1302.57,1081.05,1054.6776832891544,26.372316710845553
1303.65,1087.06,1055.2494474631233,31.810552536876685
1304.73,1085.26,1055.8203249146563,29.43967508534365
1305.81,1079.88,1056.390306050985,23.48969394901519
1306.89,1082.82,1056.9593813087804,25.860618691219543
1307.97,1093.47,1057.5275411482032,35.9424588517968
1309.05,1093.47,1058.0947760552756,35.37522394472444
1310.13,1097.34,1058.661076551962,38.67892344803795
1311.22,1088.12,1059.2264331956023,28.89356680439755
1312.3,1085.2,1059.7908365822166,25.409163417783475
1313.38,1094.64,1060.3542773367183,34.28572266328183
1314.46,1097.79,1060.9167461094307,36.87325389056923
1315.53,1104.99,1061.478233584963,43.51176641503707
1316.61,1110.04,1062.0387304847973,48.001269515202694
1317.69,1097.11,1062.5982275739284,34.5117724260715
1318.77,1109.04,1063.156715665352,45.8832843346479
1319.85,1104.64,1063.7141856065755,40.925814393424616
1320.93,1112.89,1064.270628290989,48.61937170901115
1322.01,1107.14,1064.8260346529087,42.313965347091425
1323.09,1106.08,1065.3803956752702,40.69960432472976
1324.17,1105.99,1065.9337023833225,40.05629761667751
1325.24,1121.51,1066.4859458430153,55.024054156984676
1326.32,1113.74,1067.0371171603545,46.702882839645554
1327.4,1109.78,1067.58720749637,42.19279250363002
1328.48,1117.74,1068.1362080587953,49.60379194120469
1329.55,1121.15,1068.6841100975569,52.46588990244322
1330.63,1122.36,1069.2309049121855,53.12909508781445
1331.71,1125.07,1069.7765838546784,55.293416145321544
1332.79,1117.62,1070.321138330162,47.298861669837834
1333.86,1125.62,1070.8645597990565,54.75544020094344
1334.94,1123.39,1071.4068397690808,51.98316023091934
1336.02,1128.83,1071.94796980271,56.88203019728985
1337.09,1135.19,1072.4879415144023,62.70205848559772
1338.17,1152.34,1073.0267465754976,79.31325342450236
1339.24,1138.84,1073.5643767200377,65.27562327996225
1340.32,1143.6,1074.1008237613785,69.49917623862143
1341.39,1144.23,1074.636079578152,69.593920421848
1342.47,1151.5,1075.1701361184898,76.32986388151016
1343.54,1165.03,1075.7029854001175,89.32701459988243
1344.62,1178.13,1076.2346195170912,101.89538048290888
1345.69,1177.92,1076.7650306527946,101.15496934720545
1346.77,1199.95,1077.2942110925064,122.65578890749362
1347.84,1192.12,1077.8221532226607,114.29784677733915
1348.92,1213.77,1078.348849552348,135.42115044765205
1349.99,1222.41,1078.8742927049566,143.5357072950435
1351.06,1248.34,1079.3984754392964,168.94152456070356
1352.14,1256.61,1079.921390657713,176.688609342287
1353.21,1281.74,1080.443031431494,201.29696856850592
1354.28,1324.43,1080.9633910086168,243.46660899138328
1355.36,1360.5,1081.4824628383546,279.01753716164535
1356.43,1394.13,1082.0002406134486,312.12975938655154
1357.5,1442.17,1082.516718305657,359.65328169434315
1358.58,1506.57,1083.0318901988687,423.5381098011312
1359.65,1581.35,1083.5457509366263,497.8042490633736
1360.72,1675.85,1084.05829558601,591.7917044139899
1361.79,1787.84,1084.5695197119044,703.2704802880955
1362.86,1899.14,1085.0794194709852,814.0605805290149
1363.93,2013.06,1085.5879917231994,927.4720082768006
1365.01,2129.55,1086.0952341425543,1043.4547658574459
1366.08,2188.01,1086.6011453305293,1101.4088546694709
1367.15,2230.46,1087.1057249320588,1143.3542750679412
1368.22,2206.42,1087.6089736934864,1118.8110263065137
1369.29,2150.45,1088.11089350451,1062.33910649549
1370.36,2071.96,1088.6114873736387,983.3485126263613
1371.43,1951.28,1089.110759371722,862.169240628278
1372.5,1851.45,1089.608714552957,761.841285447043
1373.57,1734.26,1090.1053588337115,644.1546411662885
1374.64,1625.48,1090.6006988921943,534.8793011078058
1375.71,1538.25,1091.0947420507691,447.1552579492309
1376.78,1459.44,1091.5874961666796,367.8525038333205
1377.85,1404.83,1092.078969544324,312.75103045567585
1378.92,1365.01,1092.5691708559543,272.44082914404567
1379.99,1305.85,1093.0581090865726,212.79189091342732
1381.06,1283.68,1093.545793493623,190.13420650637704
1382.12,1263.19,1094.0322335473422,169.15776645265782
1383.19,1241.11,1094.517438908101,146.59256109189892
1384.26,1226.48,1095.001419405428,131.47858059457212
1385.33,1210.81,1095.4841850154446,115.32581498455534
1386.4,1205.28,1095.9657458457516,109.31425415424837
1387.47,1178.07,1096.4461121192753,81.62388788072462
1388.53,1186.58,1096.9252941682566,89.65470583174329
1389.6,1183.68,1097.4033024065604,86.27669759343962
1390.67,1176.72,1097.8801473377061,78.83985266229388
1391.74,1168.98,1098.3558395514901,70.62416044850988
1392.8,1165.27,1098.8303897165495,66.43961028345052
1393.87,1161.09,1099.3038085721455,61.78619142785442
1394.94,1146.25,1099.7761069239791,46.473893076020886
1396.0,1140.84,1100.2472956395382,40.59270436046177
1397.07,1149.41,1100.7173856327847,48.692614367215356
1398.13,1151.28,1101.1863878582742,50.09361214172577
1399.2,1159.33,1101.6543133192542,57.675686680745684
1400.26,1150.84,1102.1211730690666,48.718826930933346
1401.33,1158.24,1102.586978218729,55.653021781271036
1402.4,1131.65,1103.051739927978,28.598260072022185
1403.46,1132.7,1103.5154694122036,29.184530587796417
1404.53,1136.99,1103.9781779153955,33.011822084604546
1405.59,1141.45,1104.439876710727,37.010123289273
1406.66,1129.65,1104.900577104384,24.749422895616135
1407.72,1133.36,1105.360290439562,27.99970956043785
1408.78,1144.77,1105.8190280842073,38.95097191579271
1409.85,1146.23,1106.276801434265,39.953198565734965
1410.91,1134.39,1106.7336219246322,27.65637807536791
1411.98,1136.78,1107.189501030159,29.590498969841065
1413.04,1149.41,1107.644450253353,41.76554974664714
1414.1,1137.73,1108.0984811263124,29.631518873687583
1415.16,1132.96,1108.5516052229016,24.408394777098465
1416.23,1135.36,1109.0038341466166,26.356165853383345
1417.29,1122.98,1109.4551795253622,13.524820474637863
1418.35,1132.04,1109.9056530133992,22.134346986600804
1419.42,1128.79,1110.3552662785132,18.434733721486737
1420.48,1133.5,1110.8040310106253,22.695968989374705
1421.54,1144.6,1111.2519589180906,33.34804108190929
1422.6,1137.94,1111.6990617319607,26.240938268039372
1423.66,1139.62,1112.1453512166347,27.474648783365183
1424.73,1138.0,1112.5908391627534,25.409160837246645
1425.79,1141.06,1113.035537388432,28.02446261156797
1426.85,1137.38,1113.4794577371952,23.900542262804947
1427.91,1133.97,1113.9226120805924,20.047387919407583
1428.97,1151.65,1114.3650123140737,37.28498768592635
1430.03,1138.89,1114.8066703531367,24.083329646863376
1431.09,1115.88,1115.2475981505645,0.6324018494356096
1432.15,1134.44,1115.6878076832245,18.752192316775563
1433.21,1129.0,1116.1273109286167,12.87268907138332
1434.27,1136.59,1116.5661198829937,20.02388011700623
1435.33,1136.86,1117.0042465554807,19.855753444519223
1436.39,1136.11,1117.4417029752262,18.668297024773665
1437.45,1137.69,1117.878501191235,19.81149880876501
1438.51,1147.96,1118.3146532711798,29.645346728820186
1439.57,1137.66,1118.7501713025456,18.909828697454486
1440.63,1141.74,1119.185067402463,22.554932597537118
1441.69,1131.28,1119.6193537069723,11.66064629302764
1442.75,1135.11,1120.0530423746688,15.056957625331052
1443.8,1138.81,1120.4861455758078,18.323854424192177
1444.86,1139.38,1120.918675495702,18.46132450429809
1445.92,1134.56,1121.350644337989,13.209355662010921
1446.98,1130.83,1121.7820643247676,9.047935675232338
1448.04,1142.53,1122.2129476913462,20.31705230865373
1449.09,1133.06,1122.6433066820812,10.41669331791877
1450.15,1145.43,1123.0731535616467,22.356846438353386
1451.21,1134.93,1123.5025006051333,11.4274993948668
1452.27,1139.17,1123.9313601099886,15.238639890011427
1453.32,1135.09,1124.3597443850886,10.730255614911357
1454.38,1143.47,1124.7876657545476,18.682334245452466
1455.44,1141.73,1125.2151365532109,16.51486344678915
1456.49,1144.24,1125.642169134606,18.597830865393917
1457.55,1139.79,1126.0687758687757,13.72122413122429
1458.6,1146.02,1126.494969144361,19.525030855638988
1459.66,1137.76,1126.9207613637248,10.83923863627524
1460.72,1140.32,1127.3461649487547,12.97383505124526
1461.77,1151.93,1127.7711923321779,24.158807667822202
1462.83,1145.98,1128.1958559596958,17.784144040304227
1463.88,1146.18,1128.6201683011689,17.559831698831204
1464.94,1138.97,1129.0441418442417,9.925858155758306
1465.99,1145.57,1129.467789094119,16.10221090588084
1467.05,1144.26,1129.891122565932,14.368877434068054
1468.1,1143.65,1130.314154790914,13.335845209086074
1469.15,1133.47,1130.736898314668,2.7331016853320307
1470.21,1133.78,1131.159365696133,2.620634303867064
1471.26,1139.86,1131.5815694969808,8.27843050301908
1472.32,1138.96,1132.003522281505,6.95647771849508
1473.37,1144.14,1132.4252366222775,11.714763377722647
1474.42,1137.85,1132.846725098827,5.003274901172972
1475.48,1142.32,1133.2680003023975,9.051999697602469
1476.53,1144.43,1133.689074829237,10.740925170763148
1477.58,1126.93,1134.1099612846451,-7.17996128464506
1478.64,1136.08,1134.5306722846628,1.5493277153370855
1479.69,1138.89,1134.9512197345148,3.9387802654853203
1480.74,1139.08,1135.371615540975,3.7083844590249555
1481.79,1131.05,1135.791871614757,-4.741871614756974
1482.84,1140.77,1136.211999870283,4.558000129716902
1483.9,1127.7,1136.6320117525297,-8.932011752529661
1484.95,1125.17,1137.0519187110315,-11.881918711031403
1486.0,1123.38,1137.4717313110536,-14.091731311053536
1487.05,1136.36,1137.891458941551,-1.5314589415511364
1488.1,1142.18,1138.3111095963966,3.868890403603473
1489.15,1141.1,1138.7306911178482,2.3693088821516994
1490.2,1136.68,1139.150211352033,-2.4702113520329476
1491.25,1138.05,1139.5696781474483,-1.5196781474483032
1492.31,1139.63,1139.98909910804,-0.35909910803979983
1493.35,1138.05,1140.408481687305,-2.3584816873051295
1494.41,1131.31,1140.827833303189,-9.517833303189036
1495.46,1129.33,1141.2471611401475,-11.917161140147527
1496.5,1136.57,1141.6664714403728,-5.096471440372852
1497.55,1133.06,1142.0857692662578,-9.02576926625784
1498.6,1133.84,1142.5050591756433,-8.665059175643364
1499.65,1129.18,1142.9243448328198,-13.744344832819706
1499.92,1128.74,1143.3436290442369,-14.603629044236868
